Time(s),Input,Output_Displacement
5,0.000,5.000
5.1,0.479,5.000
5.2,0.841,5.000
5.3,0.997,5.039
5.4,0.909,5.130
5.5,0.598,5.259
5.6,0.141,5.389
5.7,-0.351,5.477
5.8,-0.757,5.485
5.9,-0.978,5.395
5.99999999999999,-0.959,5.214
6.09999999999999,-0.706,4.975
6.19999999999999,-0.279,4.729
6.29999999999999,0.215,4.533
6.39999999999999,0.657,4.435
6.49999999999999,0.938,4.461
6.59999999999999,0.989,4.608
6.69999999999999,0.798,4.844
6.79999999999999,0.412,5.115
6.89999999999999,-0.075,5.359
6.99999999999999,-0.544,5.517
7.09999999999999,-0.880,5.552
7.19999999999999,-1.000,5.456
7.29999999999999,-0.875,5.252
7.39999999999999,-0.537,4.990
7.49999999999999,-0.066,4.732
7.59999999999999,0.420,4.541
7.69999999999999,0.804,4.462
7.79999999999999,0.991,4.515
7.89999999999999,0.935,4.686
7.99999999999999,0.650,4.932
8.09999999999999,0.206,5.195
8.19999999999999,-0.288,5.408
8.29999999999999,-0.712,5.521
8.39999999999999,-0.961,5.507
8.49999999999999,-0.976,5.367
8.59999999999999,-0.751,5.138
8.69999999999999,-0.342,4.876
8.79999999999998,0.150,4.643
8.89999999999998,0.606,4.499
8.99999999999998,0.913,4.477
9.09999999999998,0.997,4.584
9.19999999999998,0.837,4.792
9.29999999999998,0.472,5.052
9.39999999999998,-0.009,5.299
9.49999999999998,-0.487,5.472
9.59999999999998,-0.846,5.530
9.69999999999998,-0.998,5.458
9.79999999999998,-0.906,5.274
9.89999999999998,-0.591,5.023
9.99999999999998,-0.132,4.766
10.1,0.359,4.566
10.2,0.763,4.473
10.3,0.979,4.508
10.4,0.956,4.664
10.5,0.699,4.903
10.6,0.271,5.165
10.7,-0.224,5.386
10.8,-0.664,5.514
10.9,-0.941,5.515
11,-0.988,5.390
11.1,-0.793,5.170
11.2,-0.404,4.908
11.3,0.084,4.669
11.4,0.551,4.511
11.5,0.884,4.472
11.6,1.000,4.563
11.7,0.871,4.761
11.8,0.529,5.017
11.9,0.057,5.269
12,-0.428,5.456
12.1,-0.809,5.530
12.2,-0.992,5.475
12.3,-0.932,5.304
12.4,-0.644,5.058
12.5,-0.198,4.798
12.6,0.296,4.587
12.7,0.718,4.478
12.8,0.964,4.496
12.9,0.974,4.638
13,0.745,4.868
13.1,0.334,5.131
13.2,-0.159,5.361
13.3,-0.613,5.504
13.4,-0.917,5.522
13.5,-0.996,5.413
13.6,-0.832,5.203
13.7,-0.464,4.943
13.8,0.018,4.697
13.9,0.495,4.525
14,0.851,4.470
14.1,0.999,4.544
14.2,0.902,4.730
14.3,0.584,4.982
14.4,0.124,5.238
14.5,-0.367,5.437
14.6,-0.768,5.528
14.7,-0.981,5.490
14.8,-0.954,5.332
14.9,-0.693,5.093
15,-0.262,4.831
15.1,0.232,4.610
15.2,0.670,4.485
15.3,0.944,4.486
15.4,0.987,4.613
15.5,0.788,4.834
15.6,0.396,5.096
15.7,-0.093,5.335
15.8,-0.559,5.491
15.9,-0.888,5.527
16,-1.000,5.435
16.1,-0.867,5.235
16.2,-0.522,4.978
16.3,-0.049,4.727
16.4,0.436,4.542
16.5,0.814,4.469
16.6,0.993,4.527
16.7,0.928,4.700
16.8,0.637,4.947
16.9,0.189,5.206
17,-0.305,5.416
17.1,-0.724,5.523
17.2,-0.966,5.502
17.3,-0.972,5.359
17.4,-0.739,5.127
17.5,-0.326,4.865
17.6,0.167,4.635
17.7,0.620,4.495
17.8,0.920,4.478
17.9,0.995,4.590
18,0.827,4.801
18.1,0.456,5.061
18.2,-0.027,5.307
18.3,-0.503,5.477
18.4,-0.856,5.530
18.5,-0.999,5.454
18.6,-0.898,5.266
18.7,-0.577,5.014
18.8,-0.115,4.757
18.9,0.376,4.561
19,0.774,4.472
19.1,0.983,4.512
19.2,0.951,4.672
19.3,0.686,4.912
19.4,0.254,5.173
19.5,-0.241,5.393
19.6,-0.677,5.516
19.7,-0.947,5.513
19.8,-0.985,5.384
19.9,-0.782,5.161
20,-0.388,4.899
20.1,0.102,4.662
20.2,0.566,4.507
20.3,0.892,4.473
20.4,1.000,4.568
20.5,0.862,4.769
20.6,0.514,5.026
20.7,0.040,5.277
20.8,-0.444,5.460
20.9,-0.819,5.531
21,-0.994,5.471
21.1,-0.925,5.296
21.2,-0.630,5.049
21.3,-0.180,4.789
21.4,0.313,4.582
21.5,0.730,4.476
21.6,0.968,4.499
21.7,0.969,4.645
21.8,0.733,4.877
21.9,0.317,5.140
22,-0.176,5.368
22.1,-0.626,5.506
22.2,-0.923,5.521
22.3,-0.994,5.407
22.4,-0.822,5.194
22.5,-0.448,4.934
22.6000000000001,0.035,4.689
22.7000000000001,0.510,4.521
22.8000000000001,0.860,4.470
22.9000000000001,0.999,4.549
23.0000000000001,0.894,4.738
23.1000000000001,0.570,4.991
23.2000000000001,0.106,5.247
23.3000000000001,-0.384,5.442
23.4000000000001,-0.779,5.529
23.5000000000001,-0.984,5.486
23.6000000000001,-0.948,5.325
23.7000000000001,-0.680,5.084
23.8000000000001,-0.245,4.822
23.9000000000001,0.250,4.604
24.0000000000001,0.683,4.483
24.1000000000001,0.950,4.489
24.2000000000001,0.984,4.619
24.3000000000001,0.777,4.843
24.4000000000001,0.380,5.106
24.5000000000001,-0.110,5.342
24.6000000000001,-0.573,5.495
24.7000000000001,-0.896,5.526
24.8000000000001,-0.999,5.429
24.9000000000001,-0.858,5.227
25.0000000000001,-0.506,4.969
25.1000000000001,-0.031,4.719
25.2000000000001,0.452,4.537
25.3000000000001,0.824,4.469
25.4000000000001,0.995,4.531
25.5000000000001,0.922,4.708
25.6000000000001,0.623,4.956
25.7000000000001,0.172,5.215
25.8000000000001,-0.322,5.421
25.9000000000001,-0.736,5.525
26.0000000000001,-0.971,5.499
26.1000000000001,-0.967,5.352
26.2000000000001,-0.727,5.118
26.3000000000001,-0.309,4.856
26.4000000000001,0.185,4.628
26.5000000000001,0.633,4.492
26.6000000000001,0.927,4.480
26.7000000000001,0.993,4.596
26.8000000000001,0.817,4.810
26.9000000000001,0.440,5.071
27.0000000000001,-0.044,5.314
27.1000000000001,-0.518,5.481
27.2000000000001,-0.865,5.530
27.3000000000001,-1.000,5.449
27.4000000000001,-0.890,5.258
27.5000000000001,-0.562,5.004
27.6000000000001,-0.097,4.749
27.7000000000001,0.392,4.556
27.8000000000001,0.785,4.471
27.9000000000001,0.986,4.516
28.0000000000001,0.945,4.679
28.1000000000001,0.673,4.921
28.2000000000001,0.237,5.182
28.3000000000001,-0.258,5.399
28.4000000000001,-0.690,5.518
28.5000000000001,-0.952,5.510
28.6000000000001,-0.982,5.377
28.7000000000001,-0.771,5.152
28.8000000000001,-0.371,4.890
28.9000000000001,0.119,4.654
29.0000000000001,0.581,4.504
29.1000000000001,0.900,4.474
29.2000000000001,0.999,4.574
29.3000000000001,0.853,4.777
29.4000000000001,0.499,5.036
29.5000000000001,0.022,5.285
29.6000000000002,-0.460,5.465
29.7000000000002,-0.829,5.531
29.8000000000002,-0.996,5.467
29.9000000000002,-0.918,5.288
30.0000000000002,-0.616,5.039
30.1000000000002,-0.163,4.781
30.2000000000002,0.330,4.576
30.3000000000002,0.742,4.475
30.4000000000002,0.973,4.502
30.5000000000002,0.965,4.652
30.6000000000002,0.721,4.886
30.7000000000002,0.301,5.149
30.8000000000002,-0.193,5.375
30.9000000000002,-0.640,5.509
31.0000000000002,-0.930,5.519
31.1000000000002,-0.992,5.401
31.2000000000002,-0.812,5.186
31.3000000000002,-0.432,4.925
31.4000000000002,0.053,4.682
31.5000000000002,0.525,4.517
31.6000000000002,0.869,4.471
31.7000000000002,1.000,4.554
31.8000000000002,0.886,4.746
31.9000000000002,0.555,5.001
32.0000000000002,0.088,5.255
32.1000000000002,-0.400,5.447
32.2000000000002,-0.790,5.530
32.3000000000002,-0.987,5.482
32.4000000000002,-0.943,5.317
32.5000000000002,-0.667,5.074
32.6000000000002,-0.228,4.813
32.7000000000002,0.267,4.598
32.8000000000002,0.696,4.481
32.9000000000002,0.955,4.491
33.0000000000002,0.980,4.626
33.1000000000002,0.765,4.852
33.2000000000002,0.363,5.115
33.3000000000002,-0.128,5.349
33.4000000000002,-0.588,5.498
33.5000000000002,-0.904,5.525
33.6000000000002,-0.998,5.423
33.7000000000002,-0.849,5.218
33.8000000000002,-0.491,4.960
33.9000000000002,-0.013,4.711
34.0000000000002,0.468,4.533
34.1000000000002,0.834,4.469
34.2000000000002,0.996,4.536
34.3000000000002,0.915,4.716
34.4000000000002,0.609,4.965
34.5000000000002,0.154,5.224
34.6000000000002,-0.338,5.427
34.7000000000002,-0.748,5.526
34.8000000000002,-0.975,5.496
34.9000000000002,-0.963,5.345
35.0000000000002,-0.715,5.109
35.1000000000002,-0.292,4.847
35.2000000000002,0.202,4.622
35.3000000000002,0.647,4.490
35.4000000000002,0.933,4.482
35.5000000000002,0.991,4.602
35.6000000000002,0.806,4.819
35.7000000000002,0.424,5.080
35.8000000000002,-0.062,5.322
35.9000000000002,-0.533,5.485
36.0000000000002,-0.873,5.529
36.1000000000002,-1.000,5.444
36.2000000000002,-0.882,5.250
36.3000000000002,-0.548,4.995
36.4000000000002,-0.080,4.741
36.5000000000002,0.408,4.551
36.6000000000003,0.796,4.470
36.7000000000003,0.989,4.520
36.8000000000003,0.940,4.687
36.9000000000003,0.660,4.930
37.0000000000003,0.219,5.191
37.1000000000003,-0.275,5.405
37.2000000000003,-0.702,5.520
37.3000000000003,-0.958,5.507
37.4000000000003,-0.978,5.371
37.5000000000003,-0.760,5.143
37.6000000000003,-0.355,4.881
37.7000000000003,0.137,4.647
37.8000000000003,0.595,4.500
37.9000000000003,0.907,4.476
38.0000000000003,0.998,4.579
38.1000000000003,0.844,4.786
38.2000000000003,0.483,5.045
38.3000000000003,0.004,5.293
38.4000000000003,-0.476,5.469
38.5000000000003,-0.839,5.531
38.6000000000003,-0.997,5.462
38.7000000000003,-0.911,5.280
38.8000000000003,-0.602,5.030
38.9000000000003,-0.145,4.772
39.0000000000003,0.347,4.570
39.1000000000003,0.754,4.473
39.2000000000003,0.977,4.506
39.3000000000003,0.960,4.659
39.4000000000003,0.709,4.896
39.5000000000003,0.284,5.158
39.6000000000003,-0.211,5.381
39.7000000000003,-0.654,5.512
39.8000000000003,-0.936,5.517
39.9000000000003,-0.990,5.395
40.0000000000003,-0.801,5.177
40.1000000000003,-0.416,4.915
40.2000000000003,0.071,4.674
40.3000000000003,0.540,4.513
40.4000000000003,0.878,4.471
40.5000000000003,1.000,4.559
40.6000000000003,0.878,4.754
40.7000000000003,0.540,5.010
40.8000000000003,0.071,5.263
40.9000000000003,-0.416,5.452
41.0000000000003,-0.801,5.530
41.1000000000003,-0.990,5.478
41.2000000000003,-0.936,5.310
41.3000000000003,-0.654,5.065
41.4000000000003,-0.211,4.805
41.5000000000003,0.284,4.592
41.6000000000003,0.709,4.479
41.7000000000003,0.960,4.494
41.8000000000003,0.977,4.633
41.9000000000003,0.754,4.861
42.0000000000003,0.347,5.124
42.1000000000003,-0.146,5.356
42.2000000000003,-0.602,5.501
42.3000000000003,-0.911,5.524
42.4000000000003,-0.997,5.418
42.5000000000003,-0.839,5.210
42.6000000000003,-0.476,4.950
42.7000000000003,0.004,4.703
42.8000000000003,0.483,4.528
42.9000000000003,0.844,4.469
43.0000000000003,0.998,4.540
43.1000000000003,0.907,4.724
43.2000000000003,0.595,4.975
43.3000000000003,0.137,5.232
43.4000000000003,-0.355,5.432
43.5000000000003,-0.760,5.527
43.6000000000003,-0.978,5.493
43.7000000000004,-0.958,5.338
43.8000000000004,-0.702,5.100
43.9000000000004,-0.275,4.838
44.0000000000004,0.219,4.615
44.1000000000004,0.660,4.487
44.2000000000004,0.940,4.484
44.3000000000004,0.989,4.608
44.4000000000004,0.796,4.828
44.5000000000004,0.408,5.089
44.6000000000004,-0.080,5.329
44.7000000000004,-0.548,5.489
44.8000000000004,-0.882,5.528
44.9000000000004,-1.000,5.439
45.0000000000004,-0.873,5.242
45.1000000000004,-0.533,4.985
45.2000000000004,-0.062,4.733
45.3000000000004,0.424,4.546
45.4000000000004,0.806,4.470
45.5000000000004,0.991,4.524
45.6000000000004,0.933,4.694
45.7000000000004,0.647,4.940
45.8000000000004,0.202,5.200
45.9000000000004,-0.292,5.411
46.0000000000004,-0.715,5.522
46.1000000000004,-0.963,5.505
46.2000000000004,-0.975,5.364
46.3000000000004,-0.748,5.134
46.4000000000004,-0.338,4.872
46.5000000000004,0.154,4.640
46.6000000000004,0.609,4.497
46.7000000000004,0.915,4.477
46.8000000000004,0.996,4.585
46.9000000000004,0.834,4.795
47.0000000000004,0.468,5.054
47.1000000000004,-0.013,5.301
47.2000000000004,-0.491,5.474
47.3000000000004,-0.849,5.531
47.4000000000004,-0.998,5.457
47.5000000000004,-0.904,5.272
47.6000000000004,-0.588,5.021
47.7000000000004,-0.128,4.764
47.8000000000004,0.363,4.565
47.9000000000004,0.765,4.472
48.0000000000004,0.980,4.509
48.1000000000004,0.955,4.666
48.2000000000004,0.696,4.905
48.3000000000004,0.267,5.167
48.4000000000004,-0.228,5.388
48.5000000000004,-0.667,5.514
48.6000000000004,-0.943,5.514
48.7000000000004,-0.987,5.389
48.8000000000004,-0.790,5.168
48.9000000000004,-0.400,4.906
49.0000000000004,0.088,4.667
49.1000000000004,0.555,4.510
49.2000000000004,0.886,4.472
49.3000000000004,1.000,4.564
49.4000000000004,0.869,4.763
49.5000000000004,0.525,5.019
49.6000000000004,0.053,5.271
49.7000000000004,-0.432,5.457
49.8000000000004,-0.812,5.530
49.9000000000004,-0.992,5.474
50.0000000000004,-0.930,5.302
50.1000000000004,-0.640,5.056
50.2000000000004,-0.193,4.796
50.3000000000004,0.301,4.586
50.4000000000004,0.721,4.477
50.5000000000004,0.965,4.497
50.6000000000004,0.973,4.639
50.7000000000005,0.742,4.870
50.8000000000005,0.330,5.133
50.9000000000005,-0.163,5.363
51.0000000000005,-0.616,5.504
51.1000000000005,-0.918,5.522
51.2000000000005,-0.996,5.412
51.3000000000005,-0.829,5.201
51.4000000000005,-0.460,4.941
51.5000000000005,0.022,4.695
51.6000000000005,0.499,4.524
51.7000000000005,0.853,4.470
51.8000000000005,0.999,4.545
51.9000000000005,0.900,4.732
52.0000000000005,0.581,4.984
52.1000000000005,0.119,5.240
52.2000000000005,-0.371,5.438
52.3000000000005,-0.771,5.528
52.4000000000005,-0.982,5.489
52.5000000000005,-0.952,5.330
52.6000000000005,-0.690,5.091
52.7000000000005,-0.258,4.829
52.8000000000005,0.237,4.609
52.9000000000005,0.674,4.485
53.0000000000005,0.945,4.487
53.1000000000005,0.986,4.614
53.2000000000005,0.785,4.837
53.3000000000005,0.392,5.099
53.4000000000005,-0.097,5.337
53.5000000000005,-0.562,5.492
53.6000000000005,-0.890,5.527
53.7000000000005,-1.000,5.433
53.8000000000005,-0.865,5.233
53.9000000000005,-0.518,4.976
54.0000000000005,-0.044,4.725
54.1000000000005,0.440,4.541
54.2000000000005,0.817,4.469
54.3000000000005,0.993,4.528
54.4000000000005,0.927,4.702
54.5000000000005,0.633,4.949
54.6000000000005,0.185,5.209
54.7000000000005,-0.309,5.417
54.8000000000005,-0.727,5.523
54.9000000000005,-0.967,5.502
55.0000000000005,-0.971,5.357
55.1000000000005,-0.736,5.125
55.2000000000005,-0.322,4.862
55.3000000000005,0.172,4.634
55.4000000000005,0.623,4.494
55.5000000000005,0.922,4.479
55.6000000000005,0.995,4.591
55.7000000000005,0.824,4.803
55.8000000000005,0.452,5.064
55.9000000000005,-0.031,5.309
56.0000000000005,-0.506,5.478
56.1000000000005,-0.858,5.530
56.2000000000005,-0.999,5.453
56.3000000000005,-0.896,5.264
56.4000000000005,-0.573,5.011
56.5000000000005,-0.110,4.755
56.6000000000005,0.380,4.559
56.7000000000005,0.777,4.471
56.8000000000005,0.984,4.513
56.9000000000005,0.950,4.673
57.0000000000005,0.683,4.914
57.1000000000005,0.250,5.176
57.2000000000005,-0.245,5.394
57.3000000000005,-0.680,5.516
57.4000000000005,-0.948,5.512
57.5000000000005,-0.984,5.382
57.6000000000005,-0.779,5.159
57.7000000000005,-0.384,4.897
57.8000000000006,0.106,4.660
57.9000000000006,0.570,4.506
58.0000000000006,0.894,4.473
58.1000000000006,0.999,4.570
58.2000000000006,0.860,4.771
58.3000000000006,0.510,5.029
58.4000000000006,0.035,5.279
58.5000000000006,-0.448,5.462
58.6000000000006,-0.822,5.531
58.7000000000006,-0.994,5.470
58.8000000000006,-0.923,5.294
58.9000000000006,-0.626,5.046
59.0000000000006,-0.176,4.787
59.1000000000006,0.317,4.580
59.2000000000006,0.733,4.476
59.3000000000006,0.969,4.500
59.4000000000006,0.968,4.646
59.5000000000006,0.730,4.880
59.6000000000006,0.313,5.142
59.7000000000006,-0.180,5.370
59.8000000000006,-0.630,5.507
59.9000000000006,-0.925,5.520
60.0000000000006,-0.994,5.406
60.1000000000006,-0.819,5.192
60.2000000000006,-0.444,4.932
60.3000000000006,0.040,4.688
60.4000000000006,0.514,4.520
60.5000000000006,0.862,4.470
60.6000000000006,1.000,4.550
60.7000000000006,0.892,4.740
60.8000000000006,0.566,4.994
60.9000000000006,0.102,5.249
61.0000000000006,-0.388,5.443
61.1000000000006,-0.782,5.529
61.2000000000006,-0.985,5.485
61.3000000000006,-0.947,5.323
61.4000000000006,-0.677,5.081
61.5000000000006,-0.241,4.820
61.6000000000006,0.254,4.603
61.7000000000006,0.686,4.483
61.8000000000006,0.951,4.489
61.9000000000006,0.983,4.621
62.0000000000006,0.774,4.845
62.1000000000006,0.375,5.108
62.2000000000006,-0.115,5.344
62.3000000000006,-0.577,5.496
62.4000000000006,-0.898,5.526
62.5000000000006,-0.999,5.428
62.6000000000006,-0.856,5.225
62.7000000000006,-0.503,4.967
62.8000000000006,-0.027,4.717
62.9000000000006,0.456,4.536
63.0000000000006,0.827,4.469
63.1000000000006,0.995,4.532
63.2000000000006,0.920,4.710
63.3000000000006,0.620,4.958
63.4000000000006,0.167,5.217
63.5000000000006,-0.326,5.423
63.6000000000006,-0.739,5.525
63.7000000000006,-0.972,5.498
63.8000000000006,-0.966,5.350
63.9000000000006,-0.724,5.116
64.0000000000006,-0.305,4.853
64.1000000000006,0.189,4.627
64.2000000000006,0.637,4.492
64.3000000000006,0.928,4.481
64.4000000000006,0.993,4.597
64.5000000000006,0.814,4.812
64.6000000000006,0.436,5.073
64.7000000000006,-0.049,5.316
64.8000000000006,-0.522,5.482
64.9000000000006,-0.867,5.530
65.0000000000006,-1.000,5.448
65.1000000000006,-0.888,5.256
65.2000000000006,-0.559,5.002
65.3000000000006,-0.093,4.747
65.4000000000006,0.396,4.554
65.5000000000006,0.788,4.471
65.6000000000005,0.987,4.517
65.7000000000005,0.944,4.681
65.8000000000005,0.670,4.923
65.9000000000005,0.232,5.185
66.0000000000005,-0.262,5.401
66.1000000000005,-0.693,5.518
66.2000000000005,-0.954,5.509
66.3000000000005,-0.981,5.376
66.4000000000005,-0.768,5.150
66.5000000000005,-0.367,4.888
66.6000000000005,0.124,4.653
66.7000000000005,0.584,4.503
66.8000000000005,0.902,4.475
66.9000000000005,0.999,4.575
67.0000000000005,0.851,4.780
67.1000000000005,0.495,5.038
67.2000000000005,0.018,5.287
67.3000000000005,-0.464,5.466
67.4000000000004,-0.832,5.531
67.5000000000004,-0.996,5.466
67.6000000000004,-0.917,5.286
67.7000000000004,-0.613,5.037
67.8000000000004,-0.159,4.779
67.9000000000004,0.334,4.574
68.0000000000004,0.745,4.474
68.1000000000004,0.974,4.503
68.2000000000004,0.964,4.653
68.3000000000004,0.718,4.889
68.4000000000004,0.296,5.151
68.5000000000004,-0.198,5.377
68.6000000000004,-0.644,5.510
68.7000000000004,-0.932,5.518
68.8000000000004,-0.992,5.400
68.9000000000004,-0.809,5.183
69.0000000000004,-0.428,4.922
69.1000000000003,0.058,4.680
69.2000000000003,0.529,4.516
69.3000000000003,0.871,4.471
69.4000000000003,1.000,4.555
69.5000000000003,0.884,4.748
69.6000000000003,0.551,5.003
69.7000000000003,0.084,5.257
69.8000000000003,-0.404,5.448
69.9000000000003,-0.793,5.530
70.0000000000003,-0.988,5.481
70.1000000000003,-0.941,5.315
70.2000000000003,-0.664,5.072
70.3000000000003,-0.224,4.811
70.4000000000003,0.271,4.596
70.5000000000003,0.699,4.481
70.6000000000003,0.956,4.492
70.7000000000003,0.979,4.628
70.8000000000003,0.763,4.854
70.9000000000002,0.359,5.117
71.0000000000002,-0.132,5.351
71.1000000000002,-0.591,5.499
71.2000000000002,-0.906,5.525
71.3000000000002,-0.998,5.422
71.4000000000002,-0.846,5.216
71.5000000000002,-0.487,4.957
71.6000000000002,-0.009,4.709
71.7000000000002,0.472,4.532
71.8000000000002,0.837,4.469
71.9000000000002,0.997,4.537
72.0000000000002,0.913,4.718
72.1000000000002,0.606,4.968
72.2000000000002,0.150,5.226
72.3000000000002,-0.343,5.428
72.4000000000002,-0.751,5.526
72.5000000000002,-0.976,5.495
72.6000000000002,-0.961,5.343
72.7000000000001,-0.712,5.107
72.8000000000001,-0.288,4.844
72.9000000000001,0.206,4.620
73.0000000000001,0.650,4.489
73.1000000000001,0.935,4.483
73.2000000000001,0.991,4.603
73.3000000000001,0.804,4.821
73.4000000000001,0.420,5.082
73.5000000000001,-0.066,5.324
73.6000000000001,-0.537,5.486
73.7000000000001,-0.875,5.529
73.8000000000001,-1.000,5.442
73.9000000000001,-0.880,5.248
74.0000000000001,-0.544,4.992
74.1000000000001,-0.075,4.739
74.2000000000001,0.412,4.549
74.3000000000001,0.799,4.470
74.4,0.989,4.521
74.5,0.938,4.688
74.6,0.657,4.933
74.7,0.215,5.193
74.8,-0.279,5.407
74.9,-0.706,5.520
75,-0.959,5.507
75.1,-0.978,5.369
75.2,-0.757,5.141
75.3,-0.351,4.878
75.4,0.141,4.646
75.5,0.598,4.500
75.6,0.909,4.476
75.7,0.997,4.581
75.8,0.841,4.788
75.9,0.479,5.047
76,0.000,5.295
76.1,-0.479,5.471
76.1999999999999,-0.841,5.531
76.2999999999999,-0.997,5.461
76.3999999999999,-0.909,5.278
76.4999999999999,-0.598,5.028
76.5999999999999,-0.141,4.770
76.6999999999999,0.351,4.569
76.7999999999999,0.757,4.473
76.8999999999999,0.978,4.507
76.9999999999999,0.959,4.661
77.0999999999999,0.706,4.898
77.1999999999999,0.279,5.160
77.2999999999999,-0.215,5.383
77.3999999999999,-0.657,5.512
