Time(s),Input,Output_Displacement
5.4,0.000,5.000
5.5,0.296,5.000
5.6,0.565,5.000
5.7,0.783,5.024
5.8,0.932,5.084
5.9,0.997,5.179
5.99999999999999,0.974,5.298
6.09999999999999,0.863,5.424
6.19999999999999,0.675,5.534
6.29999999999999,0.427,5.609
6.39999999999999,0.141,5.633
6.49999999999999,-0.158,5.598
6.59999999999999,-0.443,5.500
6.69999999999999,-0.688,5.349
6.79999999999999,-0.872,5.155
6.89999999999999,-0.978,4.939
6.99999999999999,-0.996,4.722
7.09999999999999,-0.926,4.525
7.19999999999999,-0.773,4.369
7.29999999999999,-0.551,4.270
7.39999999999999,-0.279,4.237
7.49999999999999,0.017,4.274
7.59999999999999,0.312,4.379
7.69999999999999,0.578,4.542
7.79999999999999,0.794,4.748
7.89999999999999,0.938,4.977
7.99999999999999,0.999,5.209
8.09999999999999,0.970,5.423
8.19999999999999,0.855,5.598
8.29999999999999,0.663,5.720
8.39999999999999,0.412,5.777
8.49999999999999,0.124,5.764
8.59999999999999,-0.174,5.682
8.69999999999999,-0.458,5.538
8.79999999999998,-0.700,5.347
8.89999999999998,-0.880,5.124
8.99999999999998,-0.981,4.890
9.09999999999998,-0.995,4.667
9.19999999999998,-0.919,4.473
9.29999999999998,-0.762,4.326
9.39999999999998,-0.537,4.240
9.49999999999998,-0.263,4.221
9.59999999999998,0.034,4.273
9.69999999999998,0.327,4.389
9.79999999999998,0.592,4.560
9.89999999999998,0.804,4.770
9.99999999999998,0.944,5.001
10.1,0.999,5.231
10.2,0.966,5.441
10.3,0.846,5.612
10.4,0.650,5.728
10.5,0.397,5.778
10.6,0.108,5.760
10.7,-0.191,5.673
10.8,-0.472,5.526
10.9,-0.712,5.333
11,-0.888,5.109
11.1,-0.984,4.876
11.2,-0.993,4.654
11.3,-0.913,4.463
11.4,-0.751,4.320
11.5,-0.522,4.237
11.6,-0.247,4.223
11.7,0.050,4.278
11.8,0.343,4.398
11.9,0.606,4.571
12,0.814,4.783
12.1,0.949,5.014
12.2,1.000,5.244
12.3,0.961,5.452
12.4,0.837,5.620
12.5,0.637,5.732
12.6,0.381,5.779
12.7,0.091,5.756
12.8,-0.207,5.666
12.9,-0.487,5.516
13,-0.723,5.321
13.1,-0.895,5.096
13.2,-0.987,4.863
13.3,-0.990,4.642
13.4,-0.906,4.453
13.5,-0.740,4.313
13.6,-0.508,4.235
13.7,-0.231,4.224
13.8,0.067,4.283
13.9,0.359,4.406
14,0.619,4.582
14.1,0.823,4.796
14.2,0.954,5.027
14.3,1.000,5.256
14.4,0.956,5.463
14.5,0.827,5.628
14.6,0.624,5.737
14.7,0.366,5.780
14.8,0.074,5.753
14.9,-0.224,5.659
15,-0.502,5.507
15.1,-0.735,5.309
15.2,-0.903,5.083
15.3,-0.989,4.850
15.4,-0.988,4.631
15.5,-0.898,4.444
15.6,-0.728,4.307
15.7,-0.493,4.232
15.8,-0.214,4.226
15.9,0.084,4.288
16,0.375,4.415
16.1,0.632,4.593
16.2,0.833,4.808
16.3,0.959,5.040
16.4,1.000,5.269
16.5,0.951,5.473
16.6,0.818,5.635
16.7,0.611,5.741
16.8,0.350,5.780
16.9,0.057,5.750
17,-0.240,5.652
17.1,-0.516,5.497
17.2,-0.746,5.297
17.3,-0.910,5.070
17.4,-0.992,4.837
17.5,-0.985,4.619
17.6,-0.891,4.435
17.7,-0.717,4.301
17.8,-0.479,4.230
17.9,-0.198,4.227
18,0.101,4.294
18.1,0.390,4.424
18.2,0.645,4.605
18.3,0.842,4.821
18.4,0.964,5.053
18.5,1.000,5.281
18.6,0.946,5.484
18.7,0.808,5.643
18.8,0.598,5.745
18.9,0.334,5.780
19,0.041,5.746
19.1,-0.256,5.645
19.2,-0.531,5.486
19.3,-0.757,5.284
19.4,-0.917,5.057
19.5,-0.994,4.825
19.6,-0.982,4.608
19.7,-0.883,4.426
19.8,-0.705,4.295
19.9,-0.464,4.228
20,-0.181,4.229
20.1,0.117,4.300
20.2,0.406,4.432
20.3,0.658,4.616
20.4,0.851,4.834
20.5,0.968,5.066
20.6,0.999,5.293
20.7,0.940,5.494
20.8,0.798,5.650
20.9,0.584,5.749
21,0.318,5.780
21.1,0.024,5.742
21.2,-0.273,5.637
21.3,-0.545,5.476
21.4,-0.768,5.272
21.5,-0.923,5.044
21.6,-0.996,4.812
21.7,-0.979,4.596
21.8,-0.875,4.417
21.9,-0.693,4.290
22,-0.449,4.226
22.1,-0.165,4.232
22.2,0.134,4.306
22.3,0.421,4.442
22.4,0.670,4.627
22.5,0.860,4.847
22.6000000000001,0.972,5.080
22.7000000000001,0.998,5.305
22.8000000000001,0.935,5.504
22.9000000000001,0.788,5.657
23.0000000000001,0.570,5.752
23.1000000000001,0.302,5.780
23.2000000000001,0.007,5.738
23.3000000000001,-0.289,5.630
23.4000000000001,-0.559,5.466
23.5000000000001,-0.779,5.260
23.6000000000001,-0.929,5.031
23.7000000000001,-0.997,4.799
23.8000000000001,-0.975,4.585
23.9000000000001,-0.867,4.409
24.0000000000001,-0.681,4.285
24.1000000000001,-0.434,4.225
24.2000000000001,-0.148,4.234
24.3000000000001,0.151,4.312
24.4000000000001,0.436,4.451
24.5000000000001,0.683,4.639
24.6000000000001,0.868,4.860
24.7000000000001,0.976,5.093
24.8000000000001,0.997,5.317
24.9000000000001,0.928,5.514
25.0000000000001,0.777,5.664
25.1000000000001,0.557,5.756
25.2000000000001,0.286,5.779
25.3000000000001,-0.010,5.733
25.4000000000001,-0.305,5.622
25.5000000000001,-0.573,5.455
25.6000000000001,-0.789,5.247
25.7000000000001,-0.936,5.018
25.8000000000001,-0.998,4.786
25.9000000000001,-0.972,4.574
26.0000000000001,-0.858,4.400
26.1000000000001,-0.668,4.279
26.2000000000001,-0.419,4.223
26.3000000000001,-0.131,4.236
26.4000000000001,0.167,4.318
26.5000000000001,0.451,4.460
26.6000000000001,0.695,4.651
26.7000000000001,0.876,4.872
26.8000000000001,0.980,5.106
26.9000000000001,0.995,5.329
27.0000000000001,0.922,5.524
27.1000000000001,0.767,5.671
27.2000000000001,0.543,5.759
27.3000000000001,0.270,5.778
27.4000000000001,-0.027,5.729
27.5000000000001,-0.321,5.614
27.6000000000001,-0.586,5.444
27.7000000000001,-0.800,5.235
27.8000000000001,-0.941,5.005
27.9000000000001,-0.999,4.774
28.0000000000001,-0.967,4.563
28.1000000000001,-0.850,4.392
28.2000000000001,-0.656,4.275
28.3000000000001,-0.403,4.222
28.4000000000001,-0.115,4.239
28.5000000000001,0.184,4.324
28.6000000000001,0.466,4.470
28.7000000000001,0.707,4.662
28.8000000000001,0.884,4.885
28.9000000000001,0.983,5.119
29.0000000000001,0.993,5.341
29.1000000000001,0.915,5.533
29.2000000000001,0.756,5.678
29.3000000000001,0.528,5.762
29.4000000000001,0.254,5.778
29.5000000000001,-0.043,5.724
29.6000000000002,-0.337,5.606
29.7000000000002,-0.600,5.433
29.8000000000002,-0.810,5.222
29.9000000000002,-0.947,4.991
30.0000000000002,-1.000,4.761
30.1000000000002,-0.963,4.552
30.2000000000002,-0.841,4.384
30.3000000000002,-0.643,4.270
30.4000000000002,-0.388,4.221
30.5000000000002,-0.098,4.242
30.6000000000002,0.200,4.331
30.7000000000002,0.481,4.479
30.8000000000002,0.719,4.674
30.9000000000002,0.892,4.898
31.0000000000002,0.986,5.132
31.1000000000002,0.991,5.353
31.2000000000002,0.909,5.543
31.3000000000002,0.745,5.684
31.4000000000002,0.514,5.764
31.5000000000002,0.238,5.776
31.6000000000002,-0.060,5.719
31.7000000000002,-0.352,5.597
31.8000000000002,-0.613,5.422
31.9000000000002,-0.819,5.210
32.0000000000002,-0.952,4.978
32.1000000000002,-1.000,4.749
32.2000000000002,-0.958,4.542
32.3000000000002,-0.831,4.376
32.4000000000002,-0.630,4.265
32.5000000000002,-0.372,4.221
32.6000000000002,-0.081,4.245
32.7000000000002,0.217,4.338
32.8000000000002,0.496,4.489
32.9000000000002,0.730,4.686
33.0000000000002,0.899,4.911
33.1000000000002,0.988,5.144
33.2000000000002,0.989,5.365
33.3000000000002,0.901,5.552
33.4000000000002,0.733,5.690
33.5000000000002,0.499,5.767
33.6000000000002,0.221,5.775
33.7000000000002,-0.077,5.714
33.8000000000002,-0.368,5.589
33.9000000000002,-0.626,5.411
34.0000000000002,-0.829,5.197
34.1000000000002,-0.957,4.965
34.2000000000002,-1.000,4.736
34.3000000000002,-0.953,4.531
34.4000000000002,-0.822,4.368
34.5000000000002,-0.617,4.261
34.6000000000002,-0.357,4.220
34.7000000000002,-0.065,4.249
34.8000000000002,0.233,4.345
34.9000000000002,0.510,4.499
35.0000000000002,0.742,4.698
35.1000000000002,0.907,4.924
35.2000000000002,0.991,5.157
35.3000000000002,0.986,5.376
35.4000000000002,0.894,5.561
35.5000000000002,0.722,5.696
35.6000000000002,0.485,5.769
35.7000000000002,0.205,5.773
35.8000000000002,-0.094,5.708
35.9000000000002,-0.384,5.580
36.0000000000002,-0.639,5.400
36.1000000000002,-0.838,5.184
36.2000000000002,-0.962,4.952
36.3000000000002,-1.000,4.724
36.4000000000002,-0.948,4.521
36.5000000000002,-0.812,4.360
36.6000000000003,-0.603,4.257
36.7000000000003,-0.341,4.220
36.8000000000003,-0.048,4.253
36.9000000000003,0.250,4.352
37.0000000000003,0.525,4.509
37.1000000000003,0.753,4.711
37.2000000000003,0.914,4.938
37.3000000000003,0.993,5.170
37.4000000000003,0.984,5.388
37.5000000000003,0.886,5.570
37.6000000000003,0.710,5.702
37.7000000000003,0.470,5.771
37.8000000000003,0.188,5.771
37.9000000000003,-0.110,5.703
38.0000000000003,-0.399,5.571
38.1000000000003,-0.652,5.389
38.2000000000003,-0.847,5.172
38.3000000000003,-0.966,4.939
38.4000000000003,-0.999,4.712
38.5000000000003,-0.943,4.511
38.6000000000003,-0.802,4.353
38.7000000000003,-0.590,4.253
38.8000000000003,-0.325,4.220
38.9000000000003,-0.031,4.256
39.0000000000003,0.266,4.359
39.1000000000003,0.539,4.520
39.2000000000003,0.764,4.723
39.3000000000003,0.920,4.951
39.4000000000003,0.995,5.183
39.5000000000003,0.980,5.399
39.6000000000003,0.878,5.579
39.7000000000003,0.698,5.708
39.8000000000003,0.455,5.773
39.9000000000003,0.172,5.769
40.0000000000003,-0.127,5.697
40.1000000000003,-0.415,5.562
40.2000000000003,-0.665,5.377
40.3000000000003,-0.856,5.159
40.4000000000003,-0.971,4.926
40.5000000000003,-0.998,4.700
40.6000000000003,-0.937,4.500
40.7000000000003,-0.792,4.346
40.8000000000003,-0.576,4.249
40.9000000000003,-0.309,4.220
41.0000000000003,-0.014,4.261
41.1000000000003,0.282,4.367
41.2000000000003,0.553,4.530
41.3000000000003,0.774,4.735
41.4000000000003,0.927,4.964
41.5000000000003,0.996,5.196
41.6000000000003,0.977,5.410
41.7000000000003,0.870,5.588
41.8000000000003,0.686,5.713
41.9000000000003,0.440,5.775
42.0000000000003,0.155,5.767
42.1000000000003,-0.144,5.691
42.2000000000003,-0.430,5.553
42.3000000000003,-0.677,5.366
42.4000000000003,-0.865,5.146
42.5000000000003,-0.974,4.913
42.6000000000003,-0.997,4.688
42.7000000000003,-0.931,4.490
42.8000000000003,-0.782,4.339
42.9000000000003,-0.562,4.246
43.0000000000003,-0.293,4.221
43.1000000000003,0.003,4.265
43.2000000000003,0.298,4.375
43.3000000000003,0.567,4.541
43.4000000000003,0.785,4.747
43.5000000000003,0.933,4.977
43.6000000000003,0.998,5.208
43.7000000000004,0.973,5.421
43.8000000000004,0.862,5.596
43.9000000000004,0.673,5.718
44.0000000000004,0.425,5.776
44.1000000000004,0.138,5.765
44.2000000000004,-0.160,5.685
44.3000000000004,-0.445,5.544
44.4000000000004,-0.690,5.354
44.5000000000004,-0.873,5.133
44.6000000000004,-0.978,4.900
44.7000000000004,-0.996,4.676
44.8000000000004,-0.925,4.481
44.9000000000004,-0.771,4.332
45.0000000000004,-0.548,4.243
45.1000000000004,-0.277,4.221
45.2000000000004,0.019,4.269
45.3000000000004,0.314,4.383
45.4000000000004,0.581,4.551
45.5000000000004,0.795,4.760
45.6000000000004,0.939,4.990
45.7000000000004,0.999,5.221
45.8000000000004,0.969,5.432
45.9000000000004,0.853,5.605
46.0000000000004,0.661,5.723
46.1000000000004,0.410,5.777
46.2000000000004,0.122,5.762
46.3000000000004,-0.177,5.678
46.4000000000004,-0.460,5.534
46.5000000000004,-0.702,5.342
46.6000000000004,-0.881,5.120
46.7000000000004,-0.981,4.887
46.8000000000004,-0.994,4.664
46.9000000000004,-0.918,4.471
47.0000000000004,-0.760,4.325
47.1000000000004,-0.534,4.240
47.2000000000004,-0.261,4.222
47.3000000000004,0.036,4.274
47.4000000000004,0.330,4.391
47.5000000000004,0.594,4.562
47.6000000000004,0.805,4.772
47.7000000000004,0.945,5.003
47.8000000000004,0.999,5.233
47.9000000000004,0.965,5.443
48.0000000000004,0.844,5.613
48.1000000000004,0.648,5.728
48.2000000000004,0.394,5.778
48.3000000000004,0.105,5.759
48.4000000000004,-0.193,5.672
48.5000000000004,-0.475,5.525
48.6000000000004,-0.714,5.331
48.7000000000004,-0.889,5.107
48.8000000000004,-0.985,4.874
48.9000000000004,-0.992,4.652
49.0000000000004,-0.911,4.461
49.1000000000004,-0.749,4.319
49.2000000000004,-0.520,4.237
49.3000000000004,-0.244,4.223
49.4000000000004,0.053,4.279
49.5000000000004,0.346,4.399
49.6000000000004,0.608,4.573
49.7000000000004,0.815,4.785
49.8000000000004,0.950,5.016
49.9000000000004,1.000,5.246
50.0000000000004,0.960,5.454
50.1000000000004,0.835,5.621
50.2000000000004,0.635,5.733
50.3000000000004,0.379,5.779
50.4000000000004,0.088,5.756
50.5000000000004,-0.210,5.665
50.6000000000004,-0.489,5.515
50.7000000000005,-0.725,5.319
50.8000000000005,-0.896,5.094
50.9000000000005,-0.987,4.861
51.0000000000005,-0.990,4.640
51.1000000000005,-0.904,4.452
51.2000000000005,-0.738,4.312
51.3000000000005,-0.506,4.234
51.4000000000005,-0.228,4.224
51.5000000000005,0.070,4.284
51.6000000000005,0.362,4.408
51.7000000000005,0.621,4.584
51.8000000000005,0.825,4.798
51.9000000000005,0.955,5.029
52.0000000000005,1.000,5.258
52.1000000000005,0.956,5.464
52.2000000000005,0.826,5.629
52.3000000000005,0.622,5.737
52.4000000000005,0.363,5.780
52.5000000000005,0.072,5.753
52.6000000000005,-0.226,5.658
52.7000000000005,-0.504,5.505
52.8000000000005,-0.737,5.307
52.9000000000005,-0.904,5.081
53.0000000000005,-0.990,4.848
53.1000000000005,-0.988,4.629
53.2000000000005,-0.897,4.443
53.3000000000005,-0.727,4.306
53.4000000000005,-0.491,4.232
53.5000000000005,-0.212,4.226
53.6000000000005,0.087,4.289
53.7000000000005,0.377,4.416
53.8000000000005,0.634,4.595
53.9000000000005,0.834,4.810
54.0000000000005,0.960,5.042
54.1000000000005,1.000,5.271
54.2000000000005,0.951,5.475
54.3000000000005,0.816,5.637
54.4000000000005,0.609,5.741
54.5000000000005,0.347,5.780
54.6000000000005,0.055,5.749
54.7000000000005,-0.243,5.651
54.8000000000005,-0.519,5.495
54.9000000000005,-0.748,5.295
55.0000000000005,-0.911,5.068
55.1000000000005,-0.992,4.835
55.2000000000005,-0.985,4.617
55.3000000000005,-0.890,4.433
55.4000000000005,-0.715,4.300
55.5000000000005,-0.476,4.230
55.6000000000005,-0.195,4.228
55.7000000000005,0.103,4.295
55.8000000000005,0.393,4.425
55.9000000000005,0.647,4.606
56.0000000000005,0.843,4.823
56.1000000000005,0.965,5.055
56.2000000000005,0.999,5.283
56.3000000000005,0.945,5.485
56.4000000000005,0.806,5.644
56.5000000000005,0.596,5.745
56.6000000000005,0.332,5.780
56.7000000000005,0.038,5.745
56.8000000000005,-0.259,5.644
56.9000000000005,-0.533,5.485
57.0000000000005,-0.759,5.282
57.1000000000005,-0.918,5.055
57.2000000000005,-0.994,4.822
57.3000000000005,-0.982,4.606
57.4000000000005,-0.882,4.425
57.5000000000005,-0.703,4.295
57.6000000000005,-0.461,4.228
57.7000000000005,-0.179,4.230
57.8000000000006,0.120,4.301
57.9000000000006,0.408,4.434
58.0000000000006,0.660,4.618
58.1000000000006,0.852,4.836
58.2000000000006,0.969,5.069
58.3000000000006,0.999,5.295
58.4000000000006,0.940,5.495
58.5000000000006,0.796,5.651
58.6000000000006,0.582,5.749
58.7000000000006,0.316,5.780
58.8000000000006,0.021,5.741
58.9000000000006,-0.275,5.636
59.0000000000006,-0.547,5.474
59.1000000000006,-0.770,5.270
59.2000000000006,-0.924,5.042
59.3000000000006,-0.996,4.810
59.4000000000006,-0.978,4.595
59.5000000000006,-0.874,4.416
59.6000000000006,-0.691,4.289
59.7000000000006,-0.446,4.226
59.8000000000006,-0.162,4.232
59.9000000000006,0.137,4.306
60.0000000000006,0.423,4.443
60.1000000000006,0.672,4.629
60.2000000000006,0.861,4.849
60.3000000000006,0.973,5.082
60.4000000000006,0.998,5.307
60.5000000000006,0.934,5.505
60.6000000000006,0.786,5.658
60.7000000000006,0.568,5.753
60.8000000000006,0.300,5.780
60.9000000000006,0.004,5.737
61.0000000000006,-0.291,5.629
61.1000000000006,-0.561,5.464
61.2000000000006,-0.781,5.258
61.3000000000006,-0.930,5.029
61.4000000000006,-0.997,4.797
61.5000000000006,-0.975,4.584
61.6000000000006,-0.865,4.407
61.7000000000006,-0.679,4.284
61.8000000000006,-0.431,4.224
61.9000000000006,-0.145,4.234
62.0000000000006,0.153,4.313
62.1000000000006,0.439,4.452
62.2000000000006,0.685,4.641
62.3000000000006,0.869,4.862
62.4000000000006,0.977,5.095
62.5000000000006,0.997,5.319
62.6000000000006,0.927,5.515
62.7000000000006,0.776,5.665
62.8000000000006,0.554,5.756
62.9000000000006,0.284,5.779
63.0000000000006,-0.012,5.733
63.1000000000006,-0.307,5.621
63.2000000000006,-0.575,5.453
63.3000000000006,-0.791,5.245
63.4000000000006,-0.936,5.016
63.5000000000006,-0.998,4.784
63.6000000000006,-0.971,4.572
63.7000000000006,-0.857,4.399
63.8000000000006,-0.666,4.279
63.9000000000006,-0.416,4.223
64.0000000000006,-0.129,4.237
64.1000000000006,0.170,4.319
64.2000000000006,0.454,4.462
64.3000000000006,0.697,4.653
64.4000000000006,0.878,4.874
64.5000000000006,0.980,5.108
64.6000000000006,0.995,5.331
64.7000000000006,0.921,5.525
64.8000000000006,0.765,5.672
64.9000000000006,0.540,5.759
65.0000000000006,0.267,5.778
65.1000000000006,-0.029,5.728
65.2000000000006,-0.323,5.613
65.3000000000006,-0.589,5.443
65.4000000000006,-0.801,5.233
65.5000000000006,-0.942,5.002
65.6000000000005,-0.999,4.772
65.7000000000005,-0.967,4.562
65.8000000000005,-0.848,4.390
65.9000000000005,-0.654,4.274
66.0000000000005,-0.401,4.222
66.1000000000005,-0.112,4.240
66.2000000000005,0.187,4.325
66.3000000000005,0.469,4.471
66.4000000000005,0.709,4.664
66.5000000000005,0.886,4.887
66.6000000000005,0.983,5.121
66.7000000000005,0.993,5.343
66.8000000000005,0.914,5.535
66.9000000000005,0.754,5.679
67.0000000000005,0.526,5.762
67.1000000000005,0.251,5.777
67.2000000000005,-0.046,5.723
67.3000000000005,-0.339,5.604
67.4000000000004,-0.602,5.432
67.5000000000004,-0.811,5.220
67.6000000000004,-0.948,4.989
67.7000000000004,-1.000,4.759
67.8000000000004,-0.962,4.551
67.9000000000004,-0.839,4.382
68.0000000000004,-0.641,4.269
68.1000000000004,-0.385,4.221
68.2000000000004,-0.095,4.243
68.3000000000004,0.203,4.332
68.4000000000004,0.483,4.481
68.5000000000004,0.720,4.676
68.6000000000004,0.893,4.900
68.7000000000004,0.986,5.134
68.8000000000004,0.991,5.355
68.9000000000004,0.907,5.544
69.0000000000004,0.743,5.685
69.1000000000003,0.512,5.765
69.2000000000003,0.235,5.776
69.3000000000003,-0.063,5.718
69.4000000000003,-0.355,5.596
69.5000000000003,-0.615,5.421
69.6000000000003,-0.821,5.208
69.7000000000003,-0.953,4.976
69.8000000000003,-1.000,4.747
69.9000000000003,-0.958,4.540
70.0000000000003,-0.830,4.374
70.1000000000003,-0.628,4.265
70.2000000000003,-0.370,4.221
70.3000000000003,-0.079,4.246
70.4000000000003,0.219,4.339
70.5000000000003,0.498,4.491
70.6000000000003,0.732,4.688
70.7000000000003,0.901,4.913
70.8000000000003,0.989,5.146
70.9000000000002,0.989,5.366
71.0000000000002,0.900,5.554
71.1000000000002,0.731,5.691
71.2000000000002,0.497,5.767
71.3000000000002,0.219,5.775
71.4000000000002,-0.080,5.713
71.5000000000002,-0.371,5.587
71.6000000000002,-0.629,5.410
71.7000000000002,-0.830,5.195
71.8000000000002,-0.958,4.963
71.9000000000002,-1.000,4.735
72.0000000000002,-0.953,4.530
72.1000000000002,-0.820,4.367
72.2000000000002,-0.615,4.260
72.3000000000002,-0.354,4.220
72.4000000000002,-0.062,4.250
72.5000000000002,0.236,4.346
72.6000000000002,0.512,4.501
72.7000000000001,0.743,4.700
72.8000000000001,0.908,4.927
72.9000000000001,0.991,5.159
73.0000000000001,0.986,5.378
73.1000000000001,0.893,5.563
73.2000000000001,0.720,5.697
73.3000000000001,0.483,5.770
73.4000000000001,0.202,5.773
73.5000000000001,-0.096,5.708
73.6000000000001,-0.386,5.579
73.7000000000001,-0.642,5.398
73.8000000000001,-0.840,5.182
73.9000000000001,-0.963,4.950
74.0000000000001,-1.000,4.722
74.1000000000001,-0.947,4.519
74.2000000000001,-0.811,4.359
74.3000000000001,-0.601,4.256
74.4,-0.338,4.220
74.5,-0.045,4.253
74.6,0.252,4.353
74.7,0.527,4.511
74.8,0.754,4.712
74.9,0.915,4.940
75,0.993,5.172
75.1,0.983,5.389
75.2,0.885,5.572
75.3,0.708,5.703
75.4,0.468,5.772
75.5,0.186,5.771
75.6,-0.113,5.702
75.7,-0.402,5.570
75.8,-0.654,5.387
75.9,-0.849,5.170
76,-0.967,4.937
76.1,-0.999,4.710
76.1999999999999,-0.942,4.509
76.2999999999999,-0.801,4.352
76.3999999999999,-0.588,4.252
76.4999999999999,-0.322,4.220
76.5999999999999,-0.028,4.257
76.6999999999999,0.268,4.361
76.7999999999999,0.541,4.521
76.8999999999999,0.765,4.725
76.9999999999999,0.921,4.953
77.0999999999999,0.995,5.185
77.1999999999999,0.980,5.401
77.2999999999999,0.877,5.581
77.3999999999999,0.696,5.709
77.4999999999999,0.453,5.773
77.5999999999999,0.169,5.769
77.6999999999999,-0.130,5.696
77.7999999999999,-0.417,5.561
77.8999999999998,-0.667,5.376
77.9999999999998,-0.857,5.157
78.0999999999998,-0.971,4.924
78.1999999999998,-0.998,4.698
78.2999999999998,-0.936,4.499
78.3999999999998,-0.790,4.345
78.4999999999998,-0.574,4.249
78.5999999999998,-0.306,4.220
78.6999999999998,-0.011,4.261
78.7999999999998,0.285,4.368
78.8999999999998,0.555,4.532
78.9999999999998,0.776,4.737
79.0999999999998,0.928,4.966
