Time(s),Input,Output_Displacement
5.4,0.000,5.000
5.5,0.060,5.000
5.6,0.120,5.000
5.7,0.179,5.005
5.8,0.238,5.017
5.9,0.296,5.039
5.99999999999999,0.352,5.068
6.09999999999999,0.408,5.103
6.19999999999999,0.462,5.143
6.29999999999999,0.514,5.185
6.39999999999999,0.565,5.227
6.49999999999999,0.613,5.267
6.59999999999999,0.659,5.305
6.69999999999999,0.703,5.340
6.79999999999999,0.745,5.371
6.89999999999999,0.783,5.400
6.99999999999999,0.819,5.425
7.09999999999999,0.852,5.448
7.19999999999999,0.882,5.469
7.29999999999999,0.909,5.488
7.39999999999999,0.932,5.506
7.49999999999999,0.952,5.523
7.59999999999999,0.969,5.538
7.69999999999999,0.982,5.552
7.79999999999999,0.991,5.564
7.89999999999999,0.997,5.575
7.99999999999999,1.000,5.583
8.09999999999999,0.999,5.589
8.19999999999999,0.994,5.594
8.29999999999999,0.986,5.596
8.39999999999999,0.974,5.595
8.49999999999999,0.958,5.593
8.59999999999999,0.940,5.588
8.69999999999999,0.917,5.581
8.79999999999998,0.892,5.572
8.89999999999998,0.863,5.561
8.99999999999998,0.831,5.548
9.09999999999998,0.797,5.533
9.19999999999998,0.759,5.516
9.29999999999998,0.718,5.497
9.39999999999998,0.675,5.476
9.49999999999998,0.630,5.454
9.59999999999998,0.582,5.430
9.69999999999998,0.533,5.404
9.79999999999998,0.481,5.377
9.89999999999998,0.427,5.349
9.99999999999998,0.372,5.320
10.1,0.316,5.289
10.2,0.259,5.257
10.3,0.200,5.224
10.4,0.141,5.191
10.5,0.082,5.157
10.6,0.022,5.122
10.7,-0.038,5.087
10.8,-0.098,5.051
10.9,-0.158,5.016
11,-0.217,4.980
11.1,-0.275,4.944
11.2,-0.332,4.909
11.3,-0.388,4.874
11.4,-0.443,4.839
11.5,-0.495,4.805
11.6,-0.547,4.772
11.7,-0.596,4.739
11.8,-0.643,4.707
11.9,-0.688,4.677
12,-0.730,4.647
12.1,-0.770,4.619
12.2,-0.807,4.592
12.3,-0.841,4.567
12.4,-0.872,4.543
12.5,-0.899,4.521
12.6,-0.924,4.501
12.7,-0.945,4.482
12.8,-0.963,4.465
12.9,-0.978,4.451
13,-0.988,4.438
13.1,-0.996,4.427
13.2,-0.999,4.418
13.3,-1.000,4.412
13.4,-0.996,4.407
13.5,-0.989,4.405
13.6,-0.979,4.404
13.7,-0.964,4.406
13.8,-0.947,4.410
13.9,-0.926,4.417
14,-0.901,4.425
14.1,-0.874,4.435
14.2,-0.843,4.447
14.3,-0.809,4.462
14.4,-0.773,4.478
14.5,-0.733,4.496
14.6,-0.691,4.516
14.7,-0.647,4.538
14.8,-0.600,4.561
14.9,-0.551,4.586
15,-0.500,4.613
15.1,-0.447,4.640
15.2,-0.392,4.670
15.3,-0.336,4.700
15.4,-0.279,4.731
15.5,-0.221,4.764
15.6,-0.162,4.797
15.7,-0.103,4.831
15.8,-0.043,4.865
15.9,0.017,4.900
16,0.077,4.936
16.1,0.136,4.971
16.2,0.196,5.007
16.3,0.254,5.043
16.4,0.312,5.078
16.5,0.368,5.114
16.6,0.423,5.149
16.7,0.477,5.183
16.8,0.528,5.217
16.9,0.578,5.249
17,0.626,5.281
17.1,0.672,5.312
17.2,0.715,5.342
17.3,0.756,5.371
17.4,0.794,5.398
17.5,0.829,5.424
17.6,0.861,5.448
17.7,0.890,5.471
17.8,0.916,5.492
17.9,0.938,5.511
18,0.957,5.529
18.1,0.973,5.544
18.2,0.985,5.558
18.3,0.994,5.569
18.4,0.999,5.579
18.5,1.000,5.586
18.6,0.998,5.591
18.7,0.992,5.595
18.8,0.983,5.596
18.9,0.970,5.595
19,0.954,5.591
19.1,0.934,5.586
19.2,0.911,5.578
19.3,0.884,5.569
19.4,0.855,5.557
19.5,0.822,5.544
19.6,0.786,5.528
19.7,0.748,5.511
19.8,0.707,5.491
19.9,0.663,5.470
20,0.617,5.447
20.1,0.569,5.423
20.2,0.518,5.397
20.3,0.466,5.370
20.4,0.412,5.341
20.5,0.357,5.311
20.6,0.300,5.280
20.7,0.242,5.248
20.8,0.184,5.215
20.9,0.124,5.181
21,0.065,5.147
21.1,0.005,5.112
21.2,-0.055,5.077
21.3,-0.115,5.041
21.4,-0.174,5.006
21.5,-0.233,4.970
21.6,-0.291,4.934
21.7,-0.348,4.899
21.8,-0.403,4.864
21.9,-0.458,4.829
22,-0.510,4.795
22.1,-0.561,4.762
22.2,-0.609,4.730
22.3,-0.656,4.699
22.4,-0.700,4.668
22.5,-0.741,4.639
22.6000000000001,-0.780,4.612
22.7000000000001,-0.816,4.585
22.8000000000001,-0.850,4.560
22.9000000000001,-0.880,4.537
23.0000000000001,-0.907,4.515
23.1000000000001,-0.930,4.495
23.2000000000001,-0.951,4.477
23.3000000000001,-0.968,4.461
23.4000000000001,-0.981,4.447
23.5000000000001,-0.991,4.435
23.6000000000001,-0.997,4.424
23.7000000000001,-1.000,4.416
23.8000000000001,-0.999,4.410
23.9000000000001,-0.995,4.406
24.0000000000001,-0.987,4.404
24.1000000000001,-0.975,4.405
24.2000000000001,-0.960,4.407
24.3000000000001,-0.941,4.412
24.4000000000001,-0.919,4.419
24.5000000000001,-0.894,4.427
24.6000000000001,-0.866,4.438
24.7000000000001,-0.834,4.451
24.8000000000001,-0.799,4.466
24.9000000000001,-0.762,4.483
25.0000000000001,-0.722,4.502
25.1000000000001,-0.679,4.522
25.2000000000001,-0.634,4.544
25.3000000000001,-0.586,4.568
25.4000000000001,-0.537,4.593
25.5000000000001,-0.485,4.620
25.6000000000001,-0.432,4.649
25.7000000000001,-0.377,4.678
25.8000000000001,-0.321,4.709
25.9000000000001,-0.263,4.740
26.0000000000001,-0.205,4.773
26.1000000000001,-0.146,4.806
26.2000000000001,-0.086,4.840
26.3000000000001,-0.026,4.875
26.4000000000001,0.034,4.910
26.5000000000001,0.093,4.946
26.6000000000001,0.153,4.981
26.7000000000001,0.212,5.017
26.8000000000001,0.270,5.053
26.9000000000001,0.327,5.088
27.0000000000001,0.384,5.124
27.1000000000001,0.438,5.158
27.2000000000001,0.491,5.192
27.3000000000001,0.543,5.226
27.4000000000001,0.592,5.259
27.5000000000001,0.639,5.290
27.6000000000001,0.684,5.321
27.7000000000001,0.727,5.350
27.8000000000001,0.767,5.379
27.9000000000001,0.804,5.406
28.0000000000001,0.838,5.431
28.1000000000001,0.869,5.455
28.2000000000001,0.897,5.477
28.3000000000001,0.922,5.498
28.4000000000001,0.944,5.516
28.5000000000001,0.962,5.533
28.6000000000001,0.977,5.548
28.7000000000001,0.988,5.561
28.8000000000001,0.995,5.572
28.9000000000001,0.999,5.581
29.0000000000001,1.000,5.588
29.1000000000001,0.997,5.593
29.2000000000001,0.990,5.595
29.3000000000001,0.979,5.596
29.4000000000001,0.966,5.594
29.5000000000001,0.948,5.590
29.6000000000002,0.928,5.584
29.7000000000002,0.904,5.576
29.8000000000002,0.876,5.566
29.9000000000002,0.846,5.554
30.0000000000002,0.812,5.539
30.1000000000002,0.776,5.523
30.2000000000002,0.737,5.505
30.3000000000002,0.695,5.485
30.4000000000002,0.650,5.464
30.5000000000002,0.604,5.441
30.6000000000002,0.555,5.416
30.7000000000002,0.504,5.390
30.8000000000002,0.451,5.362
30.9000000000002,0.397,5.333
31.0000000000002,0.341,5.303
31.1000000000002,0.284,5.271
31.2000000000002,0.226,5.239
31.3000000000002,0.167,5.206
31.4000000000002,0.108,5.172
31.5000000000002,0.048,5.137
31.6000000000002,-0.012,5.102
31.7000000000002,-0.072,5.067
31.8000000000002,-0.132,5.031
31.9000000000002,-0.191,4.996
32.0000000000002,-0.249,4.960
32.1000000000002,-0.307,4.924
32.2000000000002,-0.364,4.889
32.3000000000002,-0.419,4.854
32.4000000000002,-0.472,4.820
32.5000000000002,-0.524,4.786
32.6000000000002,-0.575,4.753
32.7000000000002,-0.623,4.721
32.8000000000002,-0.668,4.690
32.9000000000002,-0.712,4.660
33.0000000000002,-0.753,4.631
33.1000000000002,-0.791,4.604
33.2000000000002,-0.826,4.578
33.3000000000002,-0.858,4.554
33.4000000000002,-0.888,4.531
33.5000000000002,-0.914,4.510
33.6000000000002,-0.936,4.490
33.7000000000002,-0.956,4.473
33.8000000000002,-0.972,4.457
33.9000000000002,-0.984,4.443
34.0000000000002,-0.993,4.432
34.1000000000002,-0.998,4.422
34.2000000000002,-1.000,4.414
34.3000000000002,-0.998,4.409
34.4000000000002,-0.993,4.406
34.5000000000002,-0.984,4.404
34.6000000000002,-0.971,4.405
34.7000000000002,-0.955,4.408
34.8000000000002,-0.935,4.414
34.9000000000002,-0.913,4.421
35.0000000000002,-0.886,4.430
35.1000000000002,-0.857,4.442
35.2000000000002,-0.825,4.455
35.3000000000002,-0.789,4.471
35.4000000000002,-0.751,4.488
35.5000000000002,-0.710,4.507
35.6000000000002,-0.667,4.528
35.7000000000002,-0.621,4.551
35.8000000000002,-0.573,4.575
35.9000000000002,-0.522,4.601
36.0000000000002,-0.470,4.628
36.1000000000002,-0.416,4.657
36.2000000000002,-0.361,4.686
36.3000000000002,-0.305,4.717
36.4000000000002,-0.247,4.749
36.5000000000002,-0.188,4.782
36.6000000000003,-0.129,4.816
36.7000000000003,-0.069,4.850
36.8000000000003,-0.010,4.885
36.9000000000003,0.050,4.920
37.0000000000003,0.110,4.956
37.1000000000003,0.170,4.991
37.2000000000003,0.228,5.027
37.3000000000003,0.286,5.063
37.4000000000003,0.343,5.098
37.5000000000003,0.399,5.133
37.6000000000003,0.453,5.168
37.7000000000003,0.506,5.202
37.8000000000003,0.557,5.235
37.9000000000003,0.606,5.267
38.0000000000003,0.652,5.299
38.1000000000003,0.696,5.329
38.2000000000003,0.738,5.358
38.3000000000003,0.777,5.386
38.4000000000003,0.814,5.413
38.5000000000003,0.847,5.438
38.6000000000003,0.877,5.461
38.7000000000003,0.905,5.483
38.8000000000003,0.929,5.503
38.9000000000003,0.949,5.521
39.0000000000003,0.966,5.538
39.1000000000003,0.980,5.552
39.2000000000003,0.990,5.564
39.3000000000003,0.997,5.575
39.4000000000003,1.000,5.583
39.5000000000003,0.999,5.589
39.6000000000003,0.995,5.594
39.7000000000003,0.987,5.595
39.8000000000003,0.976,5.595
39.9000000000003,0.961,5.593
40.0000000000003,0.943,5.589
40.1000000000003,0.921,5.582
40.2000000000003,0.896,5.573
40.3000000000003,0.868,5.563
40.4000000000003,0.837,5.550
40.5000000000003,0.802,5.535
40.6000000000003,0.765,5.518
40.7000000000003,0.725,5.500
40.8000000000003,0.682,5.480
40.9000000000003,0.637,5.458
41.0000000000003,0.590,5.434
41.1000000000003,0.541,5.409
41.2000000000003,0.489,5.382
41.3000000000003,0.436,5.354
41.4000000000003,0.381,5.324
41.5000000000003,0.325,5.294
41.6000000000003,0.268,5.262
41.7000000000003,0.210,5.230
41.8000000000003,0.151,5.196
41.9000000000003,0.091,5.162
42.0000000000003,0.031,5.128
42.1000000000003,-0.029,5.092
42.2000000000003,-0.089,5.057
42.3000000000003,-0.148,5.021
42.4000000000003,-0.207,4.986
42.5000000000003,-0.266,4.950
42.6000000000003,-0.323,4.914
42.7000000000003,-0.379,4.879
42.8000000000003,-0.434,4.845
42.9000000000003,-0.487,4.810
43.0000000000003,-0.539,4.777
43.1000000000003,-0.588,4.744
43.2000000000003,-0.636,4.712
43.3000000000003,-0.681,4.682
43.4000000000003,-0.723,4.652
43.5000000000003,-0.764,4.624
43.6000000000003,-0.801,4.597
43.7000000000004,-0.835,4.571
43.8000000000004,-0.867,4.547
43.9000000000004,-0.895,4.525
44.0000000000004,-0.920,4.504
44.1000000000004,-0.942,4.485
44.2000000000004,-0.961,4.468
44.3000000000004,-0.975,4.453
44.4000000000004,-0.987,4.440
44.5000000000004,-0.995,4.429
44.6000000000004,-0.999,4.420
44.7000000000004,-1.000,4.413
44.8000000000004,-0.997,4.408
44.9000000000004,-0.990,4.405
45.0000000000004,-0.980,4.404
45.1000000000004,-0.967,4.406
45.2000000000004,-0.950,4.410
45.3000000000004,-0.929,4.415
45.4000000000004,-0.906,4.423
45.5000000000004,-0.879,4.433
45.6000000000004,-0.848,4.445
45.7000000000004,-0.815,4.459
45.8000000000004,-0.779,4.475
45.9000000000004,-0.740,4.493
46.0000000000004,-0.698,4.513
46.1000000000004,-0.654,4.534
46.2000000000004,-0.607,4.557
46.3000000000004,-0.559,4.582
46.4000000000004,-0.508,4.608
46.5000000000004,-0.455,4.636
46.6000000000004,-0.401,4.665
46.7000000000004,-0.345,4.695
46.8000000000004,-0.289,4.726
46.9000000000004,-0.231,4.758
47.0000000000004,-0.172,4.792
47.1000000000004,-0.113,4.825
47.2000000000004,-0.053,4.860
47.3000000000004,0.007,4.895
47.4000000000004,0.067,4.930
47.5000000000004,0.127,4.966
47.6000000000004,0.186,5.001
47.7000000000004,0.245,5.037
47.8000000000004,0.302,5.073
47.9000000000004,0.359,5.108
48.0000000000004,0.414,5.143
48.1000000000004,0.468,5.177
48.2000000000004,0.520,5.211
48.3000000000004,0.571,5.244
48.4000000000004,0.619,5.276
48.5000000000004,0.665,5.308
48.6000000000004,0.708,5.338
48.7000000000004,0.749,5.366
48.8000000000004,0.788,5.394
48.9000000000004,0.823,5.420
49.0000000000004,0.856,5.445
49.1000000000004,0.885,5.468
49.2000000000004,0.912,5.489
49.3000000000004,0.935,5.508
49.4000000000004,0.954,5.526
49.5000000000004,0.970,5.542
49.6000000000004,0.983,5.556
49.7000000000004,0.992,5.568
49.8000000000004,0.998,5.577
49.9000000000004,1.000,5.585
50.0000000000004,0.998,5.591
50.1000000000004,0.993,5.594
50.2000000000004,0.984,5.596
50.3000000000004,0.972,5.595
50.4000000000004,0.956,5.592
50.5000000000004,0.937,5.587
50.6000000000004,0.915,5.580
50.7000000000005,0.889,5.571
50.8000000000005,0.860,5.559
50.9000000000005,0.827,5.546
51.0000000000005,0.792,5.531
51.1000000000005,0.754,5.513
51.2000000000005,0.713,5.494
51.3000000000005,0.670,5.474
51.4000000000005,0.624,5.451
51.5000000000005,0.576,5.427
51.6000000000005,0.526,5.401
51.7000000000005,0.474,5.374
51.8000000000005,0.421,5.346
51.9000000000005,0.366,5.316
52.0000000000005,0.309,5.285
52.1000000000005,0.252,5.253
52.2000000000005,0.193,5.220
52.3000000000005,0.134,5.187
52.4000000000005,0.074,5.153
52.5000000000005,0.014,5.118
52.6000000000005,-0.046,5.083
52.7000000000005,-0.105,5.047
52.8000000000005,-0.165,5.011
52.9000000000005,-0.224,4.976
53.0000000000005,-0.282,4.940
53.1000000000005,-0.339,4.905
53.2000000000005,-0.395,4.869
53.3000000000005,-0.449,4.835
53.4000000000005,-0.502,4.801
53.5000000000005,-0.553,4.768
53.6000000000005,-0.602,4.735
53.7000000000005,-0.649,4.704
53.8000000000005,-0.693,4.673
53.9000000000005,-0.735,4.644
54.0000000000005,-0.774,4.616
54.1000000000005,-0.811,4.589
54.2000000000005,-0.845,4.564
54.3000000000005,-0.875,4.541
54.4000000000005,-0.903,4.519
54.5000000000005,-0.927,4.498
54.6000000000005,-0.948,4.480
54.7000000000005,-0.965,4.464
54.8000000000005,-0.979,4.449
54.9000000000005,-0.989,4.436
55.0000000000005,-0.996,4.426
55.1000000000005,-1.000,4.417
55.2000000000005,-0.999,4.411
55.3000000000005,-0.996,4.407
55.4000000000005,-0.988,4.405
55.5000000000005,-0.977,4.405
55.6000000000005,-0.962,4.407
55.7000000000005,-0.944,4.411
55.8000000000005,-0.923,4.417
55.9000000000005,-0.898,4.426
56.0000000000005,-0.870,4.436
56.1000000000005,-0.839,4.449
56.2000000000005,-0.805,4.464
56.3000000000005,-0.768,4.480
56.4000000000005,-0.728,4.499
56.5000000000005,-0.686,4.519
56.6000000000005,-0.641,4.541
56.7000000000005,-0.594,4.564
56.8000000000005,-0.545,4.589
56.9000000000005,-0.493,4.616
57.0000000000005,-0.440,4.644
57.1000000000005,-0.386,4.673
57.2000000000005,-0.330,4.704
57.3000000000005,-0.272,4.735
57.4000000000005,-0.214,4.768
57.5000000000005,-0.155,4.801
57.6000000000005,-0.096,4.835
57.7000000000005,-0.036,4.870
57.8000000000006,0.024,4.905
57.9000000000006,0.084,4.940
58.0000000000006,0.144,4.976
58.1000000000006,0.203,5.012
58.2000000000006,0.261,5.047
58.3000000000006,0.318,5.083
58.4000000000006,0.375,5.118
58.5000000000006,0.430,5.153
58.6000000000006,0.483,5.187
58.7000000000006,0.535,5.221
58.8000000000006,0.584,5.253
58.9000000000006,0.632,5.285
59.0000000000006,0.677,5.316
59.1000000000006,0.720,5.346
59.2000000000006,0.760,5.374
59.3000000000006,0.798,5.401
59.4000000000006,0.833,5.427
59.5000000000006,0.864,5.451
59.6000000000006,0.893,5.474
59.7000000000006,0.918,5.494
59.8000000000006,0.940,5.514
59.9000000000006,0.959,5.531
60.0000000000006,0.974,5.546
60.1000000000006,0.986,5.559
60.2000000000006,0.994,5.571
60.3000000000006,0.999,5.580
60.4000000000006,1.000,5.587
60.5000000000006,0.997,5.592
60.6000000000006,0.991,5.595
60.7000000000006,0.981,5.596
60.8000000000006,0.968,5.594
60.9000000000006,0.951,5.591
61.0000000000006,0.931,5.585
61.1000000000006,0.908,5.577
61.2000000000006,0.881,5.568
61.3000000000006,0.851,5.556
61.4000000000006,0.818,5.542
61.5000000000006,0.782,5.526
61.6000000000006,0.743,5.508
61.7000000000006,0.702,5.489
61.8000000000006,0.658,5.467
61.9000000000006,0.611,5.444
62.0000000000006,0.563,5.420
62.1000000000006,0.512,5.394
62.2000000000006,0.460,5.366
62.3000000000006,0.405,5.337
62.4000000000006,0.350,5.307
62.5000000000006,0.293,5.276
62.6000000000006,0.235,5.244
62.7000000000006,0.177,5.211
62.8000000000006,0.117,5.177
62.9000000000006,0.057,5.143
63.0000000000006,-0.002,5.108
63.1000000000006,-0.062,5.073
63.2000000000006,-0.122,5.037
63.3000000000006,-0.181,5.001
63.4000000000006,-0.240,4.966
63.5000000000006,-0.298,4.930
63.6000000000006,-0.355,4.895
63.7000000000006,-0.410,4.860
63.8000000000006,-0.464,4.825
63.9000000000006,-0.516,4.791
64.0000000000006,-0.567,4.758
64.1000000000006,-0.615,4.726
64.2000000000006,-0.661,4.695
64.3000000000006,-0.705,4.665
64.4000000000006,-0.746,4.636
64.5000000000006,-0.785,4.608
64.6000000000006,-0.821,4.582
64.7000000000006,-0.853,4.557
64.8000000000006,-0.883,4.534
64.9000000000006,-0.910,4.513
65.0000000000006,-0.933,4.493
65.1000000000006,-0.953,4.475
65.2000000000006,-0.969,4.459
65.3000000000006,-0.982,4.445
65.4000000000006,-0.992,4.433
65.5000000000006,-0.998,4.423
65.6000000000005,-1.000,4.415
65.7000000000005,-0.999,4.410
65.8000000000005,-0.994,4.406
65.9000000000005,-0.985,4.404
66.0000000000005,-0.973,4.405
66.1000000000005,-0.958,4.408
66.2000000000005,-0.939,4.413
66.3000000000005,-0.916,4.420
66.4000000000005,-0.891,4.429
66.5000000000005,-0.862,4.440
66.6000000000005,-0.830,4.453
66.7000000000005,-0.795,4.468
66.8000000000005,-0.757,4.485
66.9000000000005,-0.717,4.504
67.0000000000005,-0.674,4.525
67.1000000000005,-0.628,4.547
67.2000000000005,-0.580,4.571
67.3000000000005,-0.530,4.597
67.4000000000004,-0.479,4.624
67.5000000000004,-0.425,4.652
67.6000000000004,-0.370,4.682
67.7000000000004,-0.314,4.712
67.8000000000004,-0.256,4.744
67.9000000000004,-0.198,4.777
68.0000000000004,-0.139,4.810
68.1000000000004,-0.079,4.845
68.2000000000004,-0.019,4.879
68.3000000000004,0.041,4.915
68.4000000000004,0.101,4.950
68.5000000000004,0.160,4.986
68.6000000000004,0.219,5.022
68.7000000000004,0.277,5.057
68.8000000000004,0.334,5.093
68.9000000000004,0.390,5.128
69.0000000000004,0.445,5.162
69.1000000000003,0.498,5.196
69.2000000000003,0.549,5.230
69.3000000000003,0.598,5.262
69.4000000000003,0.645,5.294
69.5000000000003,0.690,5.325
69.6000000000003,0.732,5.354
69.7000000000003,0.771,5.382
69.8000000000003,0.808,5.409
69.9000000000003,0.842,5.434
70.0000000000003,0.873,5.458
70.1000000000003,0.900,5.480
70.2000000000003,0.925,5.500
70.3000000000003,0.946,5.519
70.4000000000003,0.964,5.535
70.5000000000003,0.978,5.550
70.6000000000003,0.989,5.563
70.7000000000003,0.996,5.573
70.8000000000003,1.000,5.582
70.9000000000002,1.000,5.589
71.0000000000002,0.996,5.593
71.1000000000002,0.989,5.595
71.2000000000002,0.978,5.595
71.3000000000002,0.964,5.594
71.4000000000002,0.946,5.589
71.5000000000002,0.925,5.583
71.6000000000002,0.900,5.575
71.7000000000002,0.873,5.564
71.8000000000002,0.842,5.552
71.9000000000002,0.808,5.538
72.0000000000002,0.771,5.521
72.1000000000002,0.732,5.503
72.2000000000002,0.689,5.483
72.3000000000002,0.645,5.461
72.4000000000002,0.598,5.438
72.5000000000002,0.549,5.413
72.6000000000002,0.497,5.386
72.7000000000001,0.445,5.358
72.8000000000001,0.390,5.329
72.9000000000001,0.334,5.299
73.0000000000001,0.277,5.267
73.1000000000001,0.219,5.235
73.2000000000001,0.160,5.202
73.3000000000001,0.101,5.168
73.4000000000001,0.041,5.133
73.5000000000001,-0.019,5.098
73.6000000000001,-0.079,5.063
73.7000000000001,-0.139,5.027
73.8000000000001,-0.198,4.991
73.9000000000001,-0.256,4.956
74.0000000000001,-0.314,4.920
74.1000000000001,-0.370,4.885
74.2000000000001,-0.425,4.850
74.3000000000001,-0.479,4.816
74.4,-0.531,4.782
74.5,-0.580,4.749
74.6,-0.628,4.717
74.7,-0.674,4.686
74.8,-0.717,4.657
74.9,-0.757,4.628
75,-0.795,4.601
75.1,-0.830,4.575
75.2,-0.862,4.551
75.3,-0.891,4.528
75.4,-0.917,4.507
75.5,-0.939,4.488
75.6,-0.958,4.471
75.7,-0.973,4.455
75.8,-0.985,4.442
75.9,-0.994,4.430
76,-0.999,4.421
76.1,-1.000,4.414
76.1999999999999,-0.998,4.408
76.2999999999999,-0.992,4.405
76.3999999999999,-0.982,4.404
76.4999999999999,-0.969,4.406
76.5999999999999,-0.953,4.409
76.6999999999999,-0.933,4.414
76.7999999999999,-0.910,4.422
76.8999999999999,-0.883,4.432
76.9999999999999,-0.853,4.443
77.0999999999999,-0.821,4.457
77.1999999999999,-0.785,4.473
77.2999999999999,-0.746,4.490
77.3999999999999,-0.705,4.510
77.4999999999999,-0.661,4.531
77.5999999999999,-0.615,4.554
77.6999999999999,-0.567,4.578
77.7999999999999,-0.516,4.604
77.8999999999998,-0.464,4.631
77.9999999999998,-0.410,4.660
78.0999999999998,-0.354,4.690
78.1999999999998,-0.298,4.721
78.2999999999998,-0.240,4.753
78.3999999999998,-0.181,4.786
78.4999999999998,-0.122,4.820
78.5999999999998,-0.062,4.854
78.6999999999998,-0.002,4.889
78.7999999999998,0.058,4.925
78.8999999999998,0.117,4.960
78.9999999999998,0.177,4.996
79.0999999999998,0.235,5.032
